,time,temperature,humidity
0,1658857398.227905,36.5,58.8
1,1658857398.2289038,36.4,58.8
2,1658857398.2299032,36.5,58.8
3,1658857398.2309024,36.5,58.8
4,1658857398.2319016,36.4,58.8
5,1658857398.2329013,36.5,58.8
6,1658857399.8137124,36.4,58.8
7,1658857401.8780649,36.4,58.7
8,1658857402.1524503,36.4,58.7
9,1658857402.4272923,36.4,58.6
10,1658857402.7016842,36.4,58.6
11,1658857402.9715931,36.4,58.6
12,1658857403.2459798,36.4,58.6
13,1658857403.5203664,36.4,58.5
14,1658857403.7952156,36.4,58.5
15,1658857404.0656116,36.4,58.5
16,1658857404.3394578,36.4,58.4
17,1658857404.6138399,36.4,58.4
18,1658857404.8846848,36.4,58.4
19,1658857405.1590738,36.4,58.3
20,1658857405.4329154,36.5,58.3
21,1658857405.7072995,36.4,58.2
22,1658857405.9782546,36.4,58.2
23,1658857406.252641,36.5,58.2
24,1658857406.5273614,36.4,58.2
25,1658857406.8012073,36.5,58.2
26,1658857407.0716012,36.5,58.1
27,1658857407.3464441,36.4,58.1
28,1658857407.620833,36.4,58.0
29,1658857407.8946831,36.5,58.0
30,1658857408.165195,36.4,58.1
31,1658857408.440041,36.5,58.0
32,1658857408.7144217,36.5,58.0
33,1658857408.984285,36.4,58.0
34,1658857409.2586775,36.4,58.0
35,1658857409.5330641,36.4,58.0
36,1658857409.803909,36.5,58.0
37,1658857410.0782948,36.4,58.0
38,1658857410.3521478,36.4,58.1
39,1658857410.626526,36.5,58.1
40,1658857410.8973708,36.4,58.1
41,1658857411.1717649,36.4,58.1
42,1658857411.4456131,36.4,58.2
43,1658857411.720043,36.4,58.2
44,1658857411.9909127,36.4,58.2
45,1658857412.2655325,36.4,58.2
46,1658857412.5389864,36.5,58.2
47,1658857412.809846,36.4,58.2
48,1658857413.0842423,36.4,58.3
49,1658857413.3590884,36.4,58.3
50,1658857413.6334834,36.5,58.4
51,1658857413.9033318,36.5,58.4
52,1658857414.177718,36.5,58.4
53,1658857414.4525702,36.4,58.4
54,1658857414.7224157,36.5,58.5
55,1658857414.9969096,36.5,58.5
56,1658857415.2713115,36.5,58.6
57,1658857415.5457036,36.5,58.6
58,1658857415.8165486,36.4,58.6
59,1658857416.090939,36.5,58.7
60,1658857416.364792,36.4,58.7
61,1658857416.6391904,36.4,58.7
62,1658857416.9100378,36.5,58.7
63,1658857417.1844664,36.5,58.7
64,1658857417.4583108,36.5,58.7
65,1658857417.7326925,36.4,58.8
66,1658857418.003538,36.5,58.8
67,1658857418.2779236,36.4,58.8
68,1658857418.5518515,36.4,58.8
69,1658857418.826695,36.4,58.9
70,1658857419.0970905,36.4,58.9
71,1658857419.37094,36.4,58.9
72,1658857419.6453307,36.5,58.9
73,1658857419.9201758,36.5,59.0
74,1658857420.1905708,36.5,59.0
75,1658857420.4649901,36.5,59.0
76,1658857420.7390387,36.5,59.1
77,1658857421.013882,36.5,59.1
78,1658857421.2842767,36.5,59.1
79,1658857421.5580354,36.5,59.1
80,1658857421.8328846,36.5,59.2
81,1658857422.1068282,36.4,59.2
82,1658857422.3776786,36.5,59.2
83,1658857422.652107,36.4,59.2
84,1658857422.9269533,36.5,59.3
85,1658857423.2008765,36.5,59.3
86,1658857423.4714046,36.5,59.3
87,1658857423.7455595,36.5,59.4
88,1658857424.020406,36.5,59.4
89,1658857424.290816,36.5,59.4
90,1658857424.5652156,36.5,59.4
91,1658857424.8390582,36.5,59.4
92,1658857425.113568,36.5,59.5
93,1658857425.3844128,36.5,59.5
94,1658857425.658802,36.5,59.5
95,1658857425.932651,36.4,59.5
96,1658857426.2030404,36.5,59.5
97,1658857426.4774308,36.5,59.5
98,1658857426.752278,36.5,59.5
99,1658857427.026127,36.5,59.5
100,1658857427.296529,36.5,59.5
101,1658857427.57092,36.5,59.5
102,1658857427.8457687,36.5,59.5
103,1658857428.1196363,36.5,59.5
104,1658857428.3904815,36.5,59.5
105,1658857428.6648834,36.4,59.5
106,1658857428.9387295,36.5,59.5
107,1658857429.2091172,36.5,59.5
108,1658857429.4842324,36.5,59.5
109,1658857429.7580779,36.5,59.5
110,1658857430.0329237,36.5,59.5
111,1658857430.3033109,36.4,59.5
112,1658857430.5776997,36.5,59.5
113,1658857430.851546,36.5,59.5
114,1658857431.1259382,36.5,59.5
115,1658857431.3967867,36.5,59.5
116,1658857431.6711652,36.4,59.5
117,1658857431.9450793,36.5,59.5
118,1658857432.2154694,36.5,59.5
119,1658857432.4899383,36.4,59.5
120,1658857432.7647839,36.5,59.5
121,1658857433.0388541,36.4,59.5
122,1658857433.3092387,36.5,59.5
123,1658857433.5836198,36.4,59.5
124,1658857433.8584661,36.5,59.5
125,1658857434.1322918,36.5,59.5
126,1658857434.4031403,36.5,59.4
127,1658857434.6775296,36.5,59.5
128,1658857434.951383,36.4,59.5
129,1658857435.2220936,36.5,59.4
130,1658857435.4964635,36.5,59.4
131,1658857435.7713099,36.5,59.5
132,1658857436.045363,36.5,59.5
133,1658857436.3157535,36.5,59.4
134,1658857436.5901387,36.4,59.4
135,1658857436.8639927,36.5,59.4
136,1658857437.1353765,36.5,59.4
137,1658857437.409223,36.5,59.4
138,1658857437.6836438,36.5,59.4
139,1658857437.9585862,36.5,59.4
140,1658857438.227992,36.5,59.4
141,1658857438.5024056,36.5,59.4
142,1658857438.777252,36.5,59.4
143,1658857439.048118,36.5,59.3
144,1658857439.3215122,36.5,59.4
145,1658857439.5969007,36.5,59.3
146,1658857439.8707473,36.5,59.3
147,1658857440.1411116,36.5,59.3
148,1658857440.4159672,36.5,59.3
149,1658857440.6903634,36.5,59.3
150,1658857440.9602172,36.5,59.3
151,1658857441.234604,36.5,59.3
152,1658857441.508724,36.5,59.3
153,1658857441.783569,36.5,59.3
154,1658857442.05342,36.5,59.3
155,1658857442.3278277,36.5,59.2
156,1658857442.6022217,36.5,59.2
157,1658857442.8732288,36.5,59.2
158,1658857443.1475549,36.5,59.2
159,1658857443.4213867,36.5,59.2
160,1658857443.691801,36.5,59.1
161,1658857443.9666474,36.5,59.1
162,1658857444.2410133,36.5,59.1
163,1658857444.5154076,36.5,59.1
164,1658857444.7902553,36.5,59.0
165,1658857445.0601048,36.5,59.0
166,1658857445.3345664,36.5,59.0
167,1658857445.6089559,36.5,58.9
168,1658857445.8838034,36.5,58.9
169,1658857446.1541982,36.5,58.9
170,1658857446.4284554,36.5,58.8
171,1658857446.7028575,36.5,58.8
172,1658857446.9767058,36.5,58.8
173,1658857447.2471411,36.4,58.8
174,1658857447.5215397,36.4,58.8
175,1658857447.7963898,36.4,58.7
176,1658857448.0668902,36.4,58.8
177,1658857448.3407393,36.5,58.7
178,1658857448.615729,36.5,58.7
179,1658857448.8895733,36.4,58.7
180,1658857449.1604269,36.4,58.7
181,1658857449.4342773,36.5,58.7
182,1658857449.7086916,36.4,58.7
183,1658857449.9835346,36.5,58.6
184,1658857450.2539268,36.5,58.6
185,1658857450.5283303,36.4,58.6
186,1658857450.802177,36.4,58.5
187,1658857451.0765996,36.5,58.5
188,1658857451.3474586,36.5,58.4
189,1658857451.6222022,36.4,58.5
190,1658857451.89605,36.5,58.4
191,1658857452.166471,36.4,58.4
192,1658857452.440387,36.5,58.4
193,1658857452.7147763,36.5,58.3
194,1658857452.9895966,36.4,58.3
195,1658857453.2599835,36.4,58.3
196,1658857453.5343769,36.4,58.3
197,1658857453.8092241,36.4,58.3
198,1658857454.083608,36.4,58.2
199,1658857454.353457,36.5,58.2
200,1658857454.6279178,36.5,58.2
201,1658857454.9027615,36.5,58.2
202,1658857455.177293,36.5,58.2
203,1658857455.4471376,36.4,58.2
204,1658857455.721525,36.4,58.1
205,1658857455.996368,36.5,58.1
206,1658857456.2667618,36.5,58.1
207,1658857456.541157,36.4,58.1
208,1658857456.815003,36.5,58.1
209,1658857457.0893962,36.5,58.1
210,1658857457.3595295,36.5,58.0
211,1658857457.633923,36.4,58.0
212,1658857457.9087696,36.5,58.0
213,1658857458.1831527,36.5,58.0
214,1658857458.4540024,36.4,58.0
215,1658857458.7283943,36.4,58.0
216,1658857459.0022368,36.5,58.1
217,1658857459.272617,36.4,58.1
218,1658857459.547008,36.4,58.1
219,1658857459.8218527,36.4,58.1
220,1658857460.0962613,36.4,58.1
221,1658857460.3661628,36.5,58.2
222,1658857460.6405532,36.5,58.2
223,1658857460.9154003,36.4,58.2
224,1658857461.1857908,36.4,58.2
225,1658857461.4596338,36.4,58.2
226,1658857461.7340195,36.4,58.3
227,1658857462.0089483,36.5,58.3
228,1658857462.2793474,36.4,58.3
229,1658857462.553737,36.5,58.4
230,1658857462.8275845,36.5,58.4
231,1658857463.1017618,36.4,58.4
232,1658857463.372612,36.4,58.4
233,1658857463.6469955,36.5,58.5
234,1658857463.9218483,36.5,58.5
235,1658857464.1922376,36.4,58.5
236,1658857464.4660804,36.4,58.5
237,1658857464.7404804,36.4,58.6
238,1658857465.015327,36.4,58.6
239,1658857465.2857304,36.4,58.6
240,1658857465.5601196,36.5,58.6
241,1658857465.8339725,36.4,58.7
242,1658857466.108383,36.5,58.7
243,1658857466.3792386,36.5,58.7
244,1658857466.6536307,36.4,58.7
245,1658857466.9278927,36.5,58.7
246,1658857467.202305,36.4,58.8
247,1658857467.4721541,36.5,58.8
248,1658857467.746541,36.5,58.9
249,1658857468.0213828,36.4,58.9
250,1658857468.2957773,36.4,58.9
251,1658857468.5661569,36.5,59.0
252,1658857468.840001,36.5,59.0
253,1658857469.1153889,36.5,59.0
254,1658857469.3892338,36.5,59.0
255,1658857469.6600823,36.5,59.0
256,1658857469.9339325,36.5,59.0
257,1658857470.2087743,36.5,59.1
258,1658857470.4826276,36.4,59.1
259,1658857470.7534788,36.4,59.1
260,1658857471.0273333,36.5,59.2
261,1658857471.3024375,36.5,59.2
262,1658857471.572293,36.5,59.2
263,1658857471.846452,36.5,59.3
264,1658857472.1213083,36.4,59.3
265,1658857472.3951514,36.5,59.3
266,1658857472.666428,36.5,59.3
267,1658857472.9406543,36.5,59.4
268,1658857473.2145002,36.5,59.4
269,1658857473.4853451,36.5,59.4
270,1658857473.7591934,36.5,59.5
271,1658857474.0340397,36.5,59.5
272,1658857474.3078933,36.5,59.5
273,1658857474.5790722,36.5,59.5
274,1658857474.8529198,36.5,59.5
275,1658857475.127548,36.5,59.6
276,1658857475.4023943,36.5,59.6
277,1658857475.6722174,36.5,59.6
278,1658857475.94706,36.5,59.6
279,1658857476.2214668,36.5,59.6
280,1658857476.491864,36.4,59.6
281,1658857476.7657104,36.5,59.6
282,1658857477.0399585,36.5,59.6
283,1658857477.3142817,36.5,59.6
284,1658857477.584668,36.5,59.6
285,1658857477.859513,36.5,59.6
286,1658857478.1338959,36.5,59.6
287,1658857478.4037445,36.5,59.6
288,1658857478.6781502,36.5,59.6
289,1658857478.9532218,36.5,59.6
290,1658857479.2276065,36.5,59.6
291,1658857479.4978867,36.5,59.6
292,1658857479.7725692,36.5,59.6
293,1658857480.0460513,36.5,59.6
294,1658857480.3174376,36.4,59.6
295,1658857480.5909336,36.5,59.6
296,1658857480.866215,36.5,59.6
297,1658857481.1365933,36.5,59.6
298,1658857481.4109702,36.5,59.5
299,1658857481.6846027,36.5,59.5
300,1658857481.9595253,36.5,59.6
301,1658857482.2299173,36.5,59.5
302,1658857482.5043225,36.5,59.6
303,1658857482.7781682,36.5,59.5
304,1658857483.0530164,36.5,59.5
305,1658857483.3234062,36.5,59.5
306,1658857483.5977933,36.5,59.5
307,1658857483.8719232,36.5,59.6
308,1658857484.1423206,36.5,59.5
309,1658857484.4171624,36.5,59.5
310,1658857484.6915574,36.5,59.5
311,1658857484.9654074,36.5,59.5
312,1658857485.2361972,36.5,59.5
313,1658857485.5106447,36.5,59.5
314,1658857485.7846842,36.5,59.5
315,1658857486.059666,36.4,59.4
316,1658857486.32913,36.5,59.5
317,1658857486.6035554,36.5,59.4
318,1658857486.8784,36.5,59.5
319,1658857487.1527772,36.4,59.4
320,1658857487.4236257,36.5,59.4
321,1658857487.698016,36.5,59.4
322,1658857487.9718626,36.5,59.4
323,1658857488.2422526,36.5,59.4
324,1658857488.5166435,36.5,59.4
325,1658857488.7914898,36.5,59.4
326,1658857489.0658877,36.5,59.4
327,1658857489.3357363,36.5,59.4
328,1658857489.6101224,36.4,59.4
329,1658857489.8849733,36.5,59.3
330,1658857490.1549046,36.5,59.3
331,1658857490.4292877,36.5,59.3
332,1658857490.7036765,36.5,59.3
333,1658857490.9745247,36.5,59.3
334,1658857491.2489147,36.5,59.3
335,1658857491.5233061,36.5,59.3
336,1658857491.7971528,36.5,59.2
337,1658857492.0675445,36.5,59.2
338,1658857492.3424013,36.5,59.2
339,1658857492.6167963,36.5,59.2
340,1658857492.8866477,36.5,59.1
341,1658857493.1613765,36.5,59.1
342,1658857493.436219,36.5,59.1
343,1658857493.7105992,36.5,59.1
344,1658857493.9844434,36.4,59.1
345,1658857494.25518,36.5,59.1
346,1658857494.529558,36.5,59.1
347,1658857494.8034027,36.5,59.1
348,1658857495.0777912,36.5,59.1
349,1658857495.3486388,36.5,59.0
350,1658857495.623165,36.5,59.0
351,1658857495.897008,36.5,59.0
352,1658857496.1717534,36.5,59.0
353,1658857496.4425988,36.5,59.0
354,1658857496.7169943,36.5,59.0
355,1658857496.990862,36.5,58.9
356,1658857497.265266,36.5,58.9
357,1658857497.535657,36.5,58.9
358,1658857497.809948,36.5,58.9
359,1658857498.084359,36.5,58.8
360,1658857498.3592057,36.5,58.8
361,1658857498.6296017,36.5,58.8
362,1658857498.903446,36.5,58.7
363,1658857499.1779728,36.5,58.7
364,1658857499.452819,36.5,58.7
365,1658857499.7232227,36.5,58.7
366,1658857499.9970725,36.5,58.7
367,1658857500.2714758,36.5,58.7
368,1658857500.5458894,36.5,58.6
369,1658857500.8167434,36.5,58.7
370,1658857501.091155,36.5,58.6
371,1658857501.3656428,36.5,58.6
372,1658857501.6392272,36.5,58.6
373,1658857501.910077,36.5,58.6
374,1658857502.1844788,36.5,58.6
375,1658857502.4583259,36.5,58.6
376,1658857502.7327356,36.5,58.5
377,1658857503.0037603,36.5,58.5
378,1658857503.2781656,36.5,58.5
379,1658857503.5525553,36.5,58.5
380,1658857503.8263984,36.4,58.4
381,1658857504.0967872,36.5,58.4
382,1658857504.3716364,36.5,58.4
383,1658857504.64609,36.5,58.3
384,1658857504.9159386,36.5,58.3
385,1658857505.1903262,36.5,58.3
386,1658857505.4647222,36.5,58.3
387,1658857505.7395613,36.4,58.2
388,1658857506.0098994,36.5,58.2
389,1658857506.2842867,36.5,58.2
390,1658857506.558678,36.4,58.2
391,1658857506.833529,36.4,58.2
392,1658857507.1039271,36.4,58.1
393,1658857507.3777704,36.5,58.1
394,1658857507.6523578,36.4,58.0
395,1658857507.9262064,36.5,58.0
396,1658857508.1976023,36.4,58.0
397,1658857508.4715147,36.5,58.0
398,1658857508.7453609,36.5,58.0
399,1658857509.0162134,36.4,58.0
400,1658857509.2911155,36.5,58.0
401,1658857509.5655088,36.4,58.0
402,1658857509.8393567,36.4,58.0
403,1658857510.109742,36.4,58.0
404,1658857510.38459,36.4,58.0
405,1658857510.658977,36.5,58.0
406,1658857510.9288256,36.4,58.0
407,1658857511.2032197,36.5,58.0
408,1658857511.478171,36.4,58.1
409,1658857511.752025,36.5,58.1
410,1658857512.0228732,36.5,58.1
411,1658857512.2967687,36.4,58.2
412,1658857512.571159,36.5,58.2
413,1658857512.842006,36.5,58.2
414,1658857513.1163864,36.4,58.3
415,1658857513.3902328,36.4,58.3
416,1658857513.664623,36.5,58.3
417,1658857513.9354804,36.5,58.4
418,1658857514.2098696,36.5,58.4
419,1658857514.4837797,36.4,58.4
420,1658857514.7586286,36.4,58.4
421,1658857515.0284774,36.4,58.5
422,1658857515.3033278,36.4,58.5
423,1658857515.5771832,36.4,58.5
424,1658857515.8480284,36.5,58.6
425,1658857516.1229367,36.5,58.6
426,1658857516.396783,36.5,58.6
427,1658857516.671633,36.4,58.7
428,1658857516.9414818,36.5,58.7
429,1658857517.216328,36.5,58.7
430,1658857517.4902728,36.5,58.8
431,1658857517.76512,36.4,58.9
432,1658857518.034965,36.5,58.9
433,1658857518.3096697,36.5,58.9
434,1658857518.5845153,36.5,59.0
435,1658857518.8583586,36.5,59.0
436,1658857519.129162,36.5,59.0
437,1658857519.4030085,36.5,59.0
438,1658857519.6778545,36.5,59.1
439,1658857519.951701,36.5,59.1
440,1658857520.2265503,36.5,59.1
441,1658857520.4968345,36.5,59.2
442,1658857520.7706776,36.5,59.2
443,1658857521.04552,36.5,59.2
444,1658857521.3163652,36.5,59.2
445,1658857521.5902164,36.5,59.2
446,1658857521.8650658,36.5,59.3
447,1658857522.1349144,36.5,59.3
448,1658857522.4097576,36.5,59.3
449,1658857522.683604,36.5,59.3
450,1658857522.9584503,36.5,59.3
451,1658857523.2283013,36.5,59.3
452,1658857523.5031428,36.5,59.3
453,1658857523.7769864,36.5,59.4
454,1658857524.0479634,36.5,59.4
455,1658857524.3218098,36.5,59.4
456,1658857524.5966523,36.5,59.4
457,1658857524.8714995,36.5,59.4
458,1658857525.1413474,36.5,59.4
459,1658857525.416188,36.5,59.4
460,1658857525.6900344,36.5,59.4
461,1658857525.9608831,36.5,59.4
462,1658857526.2347274,36.5,59.4
463,1658857526.5095968,36.5,59.4
464,1658857526.7834427,36.4,59.5
465,1658857527.054288,36.5,59.5
466,1658857527.3285668,36.5,59.5
467,1658857527.6028914,36.5,59.5
468,1658857527.8737397,36.5,59.5
469,1658857528.1477828,36.5,59.5
470,1658857528.4220412,36.5,59.5
471,1658857528.696887,36.5,59.5
472,1658857528.9668875,36.5,59.5
473,1658857529.241741,36.5,59.5
474,1658857529.5155866,36.5,59.5
475,1658857529.790437,36.5,59.5
476,1658857530.0602915,36.5,59.5
477,1658857530.3351436,36.5,59.5
478,1658857530.6089907,36.4,59.5
479,1658857530.879841,36.5,59.5
480,1658857531.1539855,36.5,59.5
481,1658857531.428126,36.5,59.5
482,1658857531.7029712,36.5,59.5
483,1658857531.97282,36.5,59.5
484,1658857532.2479744,36.5,59.4
485,1658857532.5222116,36.5,59.4
486,1658857532.7960577,36.5,59.4
487,1658857533.0669057,36.5,59.4
488,1658857533.3407528,36.5,59.4
489,1658857533.6155958,36.5,59.4
490,1658857533.8859706,36.5,59.4
491,1658857534.1608133,36.5,59.4
492,1658857534.4346602,36.5,59.4
493,1658857534.7095056,36.5,59.4
494,1658857534.979351,36.5,59.4
495,1658857535.2542045,36.4,59.4
496,1658857535.5280542,36.5,59.4
497,1658857535.7989025,36.5,59.4
498,1658857536.0727456,36.5,59.4
499,1658857536.3475916,36.5,59.3
500,1658857536.6214406,36.5,59.3
501,1658857536.8922846,36.5,59.3
502,1658857537.1671307,36.5,59.3
503,1658857537.4409783,36.5,59.3
504,1658857537.7111397,36.5,59.3
505,1658857537.9859843,36.5,59.3
506,1658857538.259832,36.5,59.3
507,1658857538.5349555,36.5,59.3
508,1658857538.804801,36.5,59.3
509,1658857539.0791523,36.5,59.3
510,1658857539.354,36.5,59.3
511,1658857539.6238458,36.5,59.2
512,1658857539.8986926,36.5,59.2
513,1658857540.1725385,36.5,59.2
514,1658857540.443387,36.5,59.2
515,1658857540.7182374,36.5,59.2
516,1658857540.99208,36.5,59.2
517,1658857541.2629278,36.5,59.1
518,1658857541.5367749,36.5,59.1
519,1658857541.8116171,36.5,59.1
520,1658857542.0854635,36.5,59.1
521,1658857542.3603134,36.5,59.1
522,1658857542.630166,36.5,59.1
523,1658857542.9050117,36.5,59.1
524,1658857543.178855,36.5,59.1
525,1658857543.4537003,36.5,59.1
526,1658857543.7245462,36.5,59.0
527,1658857543.9983919,36.5,59.0
528,1658857544.2732344,36.5,59.0
529,1658857544.547113,36.5,59.0
530,1658857544.8219593,36.5,59.0
531,1658857545.091808,36.5,59.0
532,1658857545.3665757,36.5,59.0
533,1658857545.6409554,36.5,58.9
534,1658857545.9147997,36.5,58.9
535,1658857546.185538,36.5,58.9
536,1658857546.4605536,36.5,58.9
537,1658857546.7349453,36.5,58.8
538,1658857547.008792,36.5,58.8
539,1658857547.2791739,36.5,58.7
540,1658857547.5535607,36.5,58.7
541,1658857547.8283691,36.5,58.7
542,1658857548.1027513,36.5,58.7
543,1658857548.3725996,36.4,58.7
544,1658857548.6469975,36.4,58.7
545,1658857548.9218469,36.5,58.6
546,1658857549.196237,36.5,58.6
547,1658857549.466084,36.4,58.6
548,1658857549.7406044,36.5,58.6
549,1658857550.015445,36.4,58.5
550,1658857550.2858472,36.5,58.5
551,1658857550.560243,36.5,58.5
552,1658857550.8340964,36.5,58.4
553,1658857551.108513,36.5,58.4
554,1658857551.3793607,36.5,58.4
555,1658857551.6537683,36.5,58.4
556,1658857551.927619,36.4,58.3
557,1658857552.202016,36.5,58.3
558,1658857552.4724116,36.5,58.3
559,1658857552.747503,36.5,58.3
560,1658857553.021349,36.4,58.3
561,1658857553.2957394,36.5,58.3
562,1658857553.5661495,36.4,58.3
563,1658857553.8410206,36.5,58.3
564,1658857554.1154144,36.5,58.2
565,1658857554.3892617,36.5,58.2
566,1658857554.6596556,36.5,58.2
567,1658857554.9346879,36.4,58.2
568,1658857555.2090707,36.5,58.2
569,1658857555.4786575,36.4,58.2
570,1658857555.7535074,36.5,58.2
571,1658857556.0283532,36.5,58.2
572,1658857556.3027325,36.4,58.1
573,1658857556.573124,36.4,58.1
574,1658857556.84705,36.4,58.0
575,1658857557.1216285,36.5,58.0
576,1658857557.3922777,36.5,58.0
577,1658857557.6660986,36.5,58.0
578,1658857557.9409595,36.5,58.0
579,1658857558.2153602,36.5,58.0
580,1658857558.485721,36.5,58.0
581,1658857558.7602148,36.4,58.0
582,1658857559.034534,36.4,58.0
583,1658857559.3048828,36.4,58.0
584,1658857559.5787253,36.4,58.0
585,1658857559.8536892,36.5,58.0
586,1658857560.1279407,36.5,58.0
587,1658857560.3984833,36.4,58.1
588,1658857560.6722236,36.5,58.0
589,1658857560.946429,36.5,58.1
590,1658857561.217614,36.5,58.1
591,1658857561.4912786,36.4,58.1
592,1658857561.766251,36.4,58.2
593,1658857562.0403812,36.4,58.2
594,1658857562.3111784,36.5,58.2
595,1658857562.5856133,36.4,58.2
596,1658857562.8592465,36.4,58.3
597,1658857563.1342616,36.4,58.3
598,1658857563.4047778,36.4,58.3
599,1658857563.6787524,36.4,58.4
600,1658857563.9535863,36.5,58.4
601,1658857564.2280114,36.5,58.4
602,1658857564.4977682,36.4,58.5
603,1658857564.772377,36.4,58.5
604,1658857565.0472243,36.4,58.6
605,1658857565.3170817,36.4,58.6
606,1658857565.5913954,36.4,58.7
607,1658857565.8663337,36.4,58.7
608,1658857566.1403508,36.4,58.7
609,1658857566.4110627,36.5,58.7
610,1658857566.6855092,36.5,58.8
611,1658857566.9591594,36.5,58.9
612,1658857567.234218,36.5,58.9
